	x	y	theta	v	a	sigma	omega	t
0	11.2437810945274	6.14427860696518	-1.70786250110508	0.0001	0.9999999877342581	-0.28500841467596666	-0.02428725733504538	0.0852377883498464
1	11.243779929745063	6.144270162293236	-1.707863393099557	0.08533779721131521	0.9716777918905093	-0.28707860677628955	-0.04344869879609796	0.1704755766996928
2	11.242786022194338	6.13706438003654	-1.7086303694053717	0.1681614631807245	0.893955027461624	-0.2907820777683476	-0.0578033002719003	0.2557133650495392
3	11.240816598607301	6.122866610926352	-1.7101623600810665	0.24436021260577948	0.8224622126657632	-0.29570910324284644	-0.06791739106209414	0.3409511533993856
4	11.237923169680622	6.102239836675855	-1.7124285324395792	0.3144650726147301	0.7566263159872826	-0.30149823144747095	-0.07431036008679147	0.426188941749232
5	11.234139496065126	6.0757039232006695	-1.7154055203547613	0.37895822639677806	0.6959361251178425	-0.30783228219274983	-0.07745867436915621	0.5114267300990784
6	11.229484656559407	6.0437395161460605	-1.719073351232568	0.43827828253458495	0.6399357447829626	-0.3144346882844876	-0.07779952504233505	0.5966645184489248
7	11.223965618197495	6.006791569282252	-1.7234125243571037	0.4928249901058964	0.5882186277157219	-0.32106614773376474	-0.07573410820856222	0.6819023067987712
8	11.217579480143472	5.965272519208379	-1.7284019886938586	0.5429634449985662	0.5404221172553925	-0.32752155562011054	-0.07163052055479865	0.7671400951486176
9	11.210315491737445	5.919565126696485	-1.7340178245838398	0.5890278310487572	0.4962224657322814	-0.33362718277054976	-0.06582625145691352	0.852377883498464
10	11.202156898654232	5.870025008151514	-1.7402324762360935	0.6313247365572844	0.4553302965358724	-0.339238066860098	-0.05863027046408842	0.9376156718483104
11	11.19308264194022	5.816982881884251	-1.7470144138338788	0.6701360840026819	0.41748648212618433	-0.3442355814448102	-0.050324732133866776	1.0228534601981567
12	11.183068917189082	5.760746554169935	-1.7543281279157463	0.7057217084050754	0.3824584143173719	-0.34852515031119946	-0.0411663429439476	1.108091248548003
13	11.172090591539405	5.701602669918976	-1.762134376469209	0.7383216177772775	0.3500366464822889	-0.35203407833819284	-0.031387453458491366	1.1933290368978493
14	11.160122471940927	5.639818252457828	-1.7703906185105835	0.7681579673648248	0.32003188959563994	-0.35470947545292836	-0.021196950791931825	1.2785668252476956
15	11.147140417449481	5.575642056476107	-1.7790515781523075	0.7954367778353794	0.2922723451197286	-0.35651625665819314	-0.010781030755810059	1.363804613597542
16	11.133122289910421	5.509305757616094	-1.7880698913414623	0.820349426129208	0.2666013576844788	-0.35743520787595007	-0.00030392604998033475	1.4490424019473882
17	11.118048740363728	5.441025001399375	-1.7973967943965352	0.8430739362292993	0.2428753695196104	-0.35746111386027235	0.010091342516555716	1.5342801902972345
18	11.101903832175475	5.371000333138713	-1.8069828197367244	0.8637760955718026	0.2209621569681856	-0.35660095014268034	0.020282138897615442	1.6195179786470808
19	11.084675505760305	5.299418029130321	-1.8167784701315572	0.8826104211407823	0.20073932750760728	-0.3548721454800432	0.030165272787804447	1.704755766996927
20	11.066355893426158	5.2264508477565315	-1.8267348485529478	0.8997209974523662	0.1820930538828838	-0.352300924342641	0.03965593039714227	1.7899935553467734
21	11.046941496068527	5.152258717183319	-1.8368042262973248	0.9152422066392125	0.1649170205240737	-0.34892074054063316	0.048686473382376	1.8752313436966197
22	11.02643323598261	5.076989374175687	-1.846940537375922	0.9292993687299308	0.14911155659470846	-0.3447708132269658	0.05720511855013217	1.960469132046466
23	11.004836401847133	5.000778966264233	-1.8570997921116554	0.9420093080314667	0.134582929921469	-0.3398947754394617	0.06517452187477057	2.0457069203963125
24	10.982160502935908	4.923752627177033	-1.8672404072885609	0.9534808593276151	0.12124277670842623	-0.3343394433380976	0.07257029757295731	2.130944708746159
25	10.958419049866812	4.846025033200373	-1.8773234539556167	0.9638153254676356	0.10900764327898939	-0.3281537116730885	0.07937950650453178	2.2161824970960056
26	10.933629278784307	4.7677009460367135	-1.8873128270151922	0.9731068958939656	0.0977986179916997	-0.32138757809833995	0.08559914843674579	2.301420285445852
27	10.907811834905084	4.68887574585774	-1.8971753430024991	0.9814430337952496	0.08754103378370001	-0.3140912960009616	0.09123469035614053	2.3866580737956986
28	10.880990429967282	4.609635956651054	-1.9068807740106288	0.9889048379048314	0.07816422433926959	-0.3063146527742211	0.09629865878219805	2.471895862145545
29	10.853191486447031	4.5300597646552605	-1.9164018266008642	0.9955673835155919	0.06960131950081802	-0.29810636807857005	0.10080931866995542	2.5571336504953917
30	10.8244437795682	4.450217529672949	-1.9257140748533124	1.0015000460560728	0.06178906809986396	-0.2895136047100882	0.10478945564603308	2.642371438845238
31	10.794778086244426	4.370172288329972	-1.9347958565672954	1.0067668095651034	0.05466767878004576	-0.28058158326843596	0.10826527253967982	2.7276092271950847
32	10.764226848248391	4.289980247885314	-1.9436281411269016	1.0114265615985343	0.04818067154008007	-0.27135329088206034	0.1112654058396958	2.812847015544931
33	10.73282385517207	4.2096912689529855	-1.9521943768115282	1.015533375481821	0.04227473459954864	-0.2618692737684366	0.11382006308160604	2.8980848038947777
34	10.700603951171953	4.129349335436134	-1.9604803244489857	1.0191367803621632	0.03689958276853804	-0.25216750332152055	0.11596027837677818	2.9833225922446243
35	10.667602768114438	4.048993010053793	-1.9684738833589124	1.0222820191883855	0.03200781478819867	-0.24228330565625142	0.11771728036810516	3.068560380594471
36	10.633856486561491	3.9686558740243356	-1.976164914579001	1.025010294530843	0.027554768122687274	-0.23224934502711533	0.11912196479617848	3.1537981689443173
37	10.599401625065306	3.888366949722938	-1.9835450654516233	1.027359002024114	0.023498370452471332	-0.22209565220400082	0.1202044625002748	3.239035957294164
38	10.564274857463158	3.808151105424149	-1.9906075988047627	1.029361951151308	0.01979898767814197	-0.21184968967069534	0.12099379294968564	3.3242737456440103
39	10.52851285726368	3.728029441551669	-1.9973472292073164	1.0310495730725586	0.016419268627488135	-0.20153644635560491	0.12151759318394692	3.409511533993857
40	10.492152167773325	3.6480196581674282	-2.0037599681234455	1.0324491152166877	0.013323986900164887	-0.1911785554670089	0.12180191221925968	3.4947493223437034
41	10.45522909630472	3.5681364037277774	-2.009842979234952	1.03358482239206	0.010479880414502268	-0.1807964298526571	0.12187106144699132	3.57998711069355
42	10.417779630615012	3.4883916054070965	-2.015594444740683	1.0344781042207631	0.00785548926675506	-0.17040841011106733	0.1217475122170916	3.6652248990433964
43	10.379839375621103	3.4087947815329236	-2.021013443070237	1.0351476887522675	0.005420992497175591	-0.16003092143258654	0.1214518325888844	3.750462687393243
44	10.34144350841052	3.329353336889214	-2.0260998381565165	1.0356097621633877	0.0031480442984251787	-0.14967863583167423	0.12100265608402132	3.8357004757430895
45	10.302626749594568	3.2500728418251024	-2.0308541801876414	1.035878094497013	0.001009610114950598	-0.13936463704261517	0.12041667614582716	3.920938264092936
46	10.263423349119323	3.1709572962567476	-2.0352776175932417	1.035964151430307	-0.0010201970214029808	-0.12910058588750517	0.11970866086282748	4.0061760524427825
47	10.223867084747978	3.092009379771633	-2.039371819903385	1.0358771920925216	-0.002966279685424125	-0.11889688438923594	0.11889148332943357	4.091413840792629
48	10.183991271544187	3.013230689141005	-2.043138911041301	1.0356243529725089	-0.004852718660798557	-0.10876283729660238	0.11797616377955192	4.176651629142475
49	10.143828780812903	2.9346219646201184	-2.046581412565683	1.0352107179663783	-0.006702934939135606	-0.09870681001803412	0.1169719203318584	4.261889417492321
50	10.103412067085698	2.856183306470963	-2.0497021963575173	1.0346393746167135	-0.00853985120874209	-0.08873638222991208	0.11588622582615642	4.347127205842167
51	10.062773201867424	2.7779143831813635	-2.0525044462441024	1.0339114565868437	-0.010386053023548511	-0.07885849664027966	0.11472486880970956	4.432364994192013
52	10.021943912986485	2.699814632880835	-2.0549916280639584	1.033026172397432	-0.012263949932362567	-0.06907960255421373	0.11349201725422897	4.517602782541859
53	9.980955628509538	2.621883459470027	-2.0571674676962863	1.0319808204287644	-0.01419593693084599	-0.05940579400810066	0.11219028405335908	4.602840570891705
54	9.939839524292141	2.5441204249895204	-2.0590359366039097	1.030770790161225	-0.016204556673853714	-0.049842942321051284	0.11082079377294593	4.688078359241551
55	9.898626574338241	2.4665254397571155	-2.0606012444660244	1.0293895495891559	-0.018312662955061527	-0.04039682295667095	0.10938325050828858	4.773316147591397
56	9.857347603234212	2.3890989518024544	-2.061867838504026	1.0278286187000703	-0.020543586025404483	-0.031073236600827222	0.10787600705007305	4.858553935941243
57	9.816033340007333	2.3118421371251636	-2.062840409127901	1.0260775288624902	-0.022921300383287702	-0.02187812434386656	0.10629613587946983	4.943791724291089
58	9.774714472835305	2.2347570922989006	-2.0635239015501643	1.024123767911716	-0.02547059572951275	-0.012817676811365798	0.10463950280801636	5.0290295126409355
59	9.733421704103943	2.1578470309395446	-2.0639235330273715	1.0219527106637794	-0.0282172518403078	-0.003898437017982942	0.10290084435367475	5.1142673009907815
60	9.692185805376258	2.081116485551935	-2.064044815394192	1.019547534523601	-0.031188218174844618	0.004872603374056072	0.10107385020417273	5.199505089340628
61	9.651037671899656	2.0045715162664663	-2.0638935825504077	1.0168891197838046	-0.0344117991014658	0.013487914825463427	0.09915125236467384	5.284742877690474
62	9.610008376341497	1.9282199279747276	-2.0634760225455486	1.0139559341352564	-0.03791784570205772	0.021939348289145705	0.0971249228200886	5.36998066604032
63	9.569129221509245	1.8520714973724404	-2.062798713877882	1.0107239008286222	-0.0417379551993517	0.030218061903979583	0.09498598176281352	5.455218454390166
64	9.528431791883015	1.7761382114182704	-2.06186866558277	1.0071662498371845	-0.04590567915048668	0.03831445691368065	0.0927249186429445	5.540456242740012
65	9.487948003868837	1.7004345187187466	-2.060693360628871	1.0032533512736994	-0.05045674166528135	0.04621812390372468	0.09033172848729296	5.625694031089858
66	9.447710154774011	1.6249775953527152	-2.0592808020682285	0.9989525302068114	-0.05542926904301331	0.05391780065780035	0.08779606610172787	5.710931819439704
67	9.407750970615652	1.5497876266536872	-2.057639561297118	0.9942278619037364	-0.060864032381121994	0.061401343158128556	0.08510742091306246	5.79616960778955
68	9.368103653004018	1.4748881064756232	-2.055778827678137	0.9890399463935161	-0.06680470489741042	0.06865571148891747	0.0822553153152838	5.881407396139396
69	9.328801925498286	1.4003061554778382	-2.0537084586503744	0.9833456610966966	-0.07329813592863091	0.07566697264641152	0.07922952945277527	5.966645184489242
70	9.289880080018586	1.3260728599789147	-2.0514390293141354	0.9770978900999737	-0.0803946438275427	0.0824203225089651	0.0760203553919783	6.051882972839088
71	9.251373024119196	1.2522236329493326	-2.048981880320983	0.9702452284649403	-0.08814833028246268	0.08890012947214665	0.07261888359407101	6.1371207611889345
72	9.21331633018846	1.1787985987400662	-2.046349162731189	0.9627316597449315	-0.09661741893276903	0.09509000250214023	0.06901732449636835	6.2223585495387805
73	9.17574628794549	1.1058430031823985	-2.0435538783226805	0.9544962046390316	-0.10586462155521428	0.10097288660003434	0.06520936783187636	6.307596337888627
74	9.138699961955824	1.033407650746165	-2.04060991365343	0.9454725384331718	-0.11595753555323803	0.10653118889371511	0.06119058205912152	6.392834126238473
75	9.10221525629047	0.9615493705138533	-2.0375320659999137	0.9355885745601151	-0.12696907699787596	0.11174693877627442	0.05695885593498365	6.478071914588319
76	9.066330988906707	0.8903315128216437	-2.0343360591269186	0.9247660112479948	-0.13897795404636204	0.11660198568310998	0.052514883842192446	6.563309702938165
77	9.03108697883395	0.8198244785416877	-2.031038546700014	0.9129198378156964	-0.1520691862036811	0.12107823823726754	0.04786269598495345	6.648547491288011
78	8.996524149801159	0.750106283139726	-2.027657101045644	0.8999577967075336	-0.1663346755919318	0.12515794858748605	0.04301023399994873	6.733785279637857
79	8.962684654537698	0.6812631578464976	-2.024210184912014	0.8857797968341883	-0.18187383714910751	0.12882404581005105	0.03796997190924061	6.819023067987703
80	8.929612024608264	0.613390190539052	-2.0207171039069998	0.8702772731968982	-0.1987942954872114	0.13206052223930054	0.032759581683497005	6.904260856337549
81	8.897351351291034	0.5465920092485805	-2.017197937410652	0.8533324871130025	-0.21721265699147574	0.13485287652926797	0.027402642007243593	6.989498644687395
82	8.86594950365921	0.4809835116047747	-2.013673446006695	0.8348177606294552	-0.23725536662740054	0.137188617128908	0.021929388159855703	7.074736433037241
83	8.835455390657788	0.4166906440034476	-2.0101649538806265	0.8145946379040038	-0.2590596598276072	0.13905782967551944	0.0163775002579729	7.159974221387087
84	8.805920274553296	0.3538512348547719	-2.006694205226982	0.792512965449635	-0.28277462074129245	0.1404538115762081	0.010792926445899385	7.2452120097369335
85	8.777398143644731	0.2926158869443398	-2.0032831945351104	0.7684098821761808	-0.3085623590287964	0.14137377675627916	0.005230736949278597	7.3304497980867795
86	8.74994615252657	0.23314893472815096	-1.9999539717277153	0.742108709124555	-0.3365993182544783	0.1418196332052755	-0.00024399582618617516	7.415687586436626
87	8.723625138457129	0.17562947329427883	-1.9967284245628787	0.7134177276764772	-0.36707772975350894	0.14179883554068481	-0.0055552968537806585	7.500925374786472
88	8.69850022247837	0.12025246676524447	-1.9936280425415185	0.6821288338398055	-0.40020722660182934	0.14132531432324172	-0.01061537457826897	7.586163163136318
89	8.674641503835261	0.06722994508989252	-1.9906736688637228	0.6480160549626399	-0.43621663298103003	0.1404204832716849	-0.015323702072482685	7.671400951486164
90	8.652124855948655	0.016792299480778056	-1.9878852498408242	0.6108339139259205	-0.47535594477590937	0.13911432479769453	-0.019566104181731894	7.75663873983601
91	8.63103283172566	-0.030810311816315914	-1.985281594707664	0.5703156245142702	-0.5178985176416427	0.13744655335062103	-0.023213865029435225	7.841876528185856
92	8.611455685407707	-0.07530643420210405	-1.9828801631292612	0.5261711002808329	-0.5641434789917918	0.13546785483646015	-0.026122875137978348	7.927114316535702
93	8.593492517582128	-0.11640164904348768	-1.9806969030271702	0.47808475781958465	-0.614418380338486	0.13324119873435972	-0.02813284414344275	8.012352104885549
94	8.577252549633927	-0.15377675125009638	-1.978746167868703	0.42571309395803747	-0.6690821060972187	0.13084321731958173	-0.029066614072657808	8.097589893235396
95	8.562856534138012	-0.18708575429369836	-1.9770407505128373	0.3686820150098535	-0.7285280542643408	0.12836564342120987	-0.02872961978712376	8.182827681585243
96	8.550438309026106	-0.21595370377169515	-1.9755920803786782	0.3065838949135443	-0.7931876031582169	0.12591679417042345	-0.026909557752255543	8.26806546993509
97	8.540146506612471	-0.2399742801950741	-1.9744106424262928	0.23897433787382247	-0.8635338763660865	0.12362308298214875	-0.023376341829872308	8.353303258284937
98	8.532146434908562	-0.2587071724104418	-1.973506690583839	0.16536862008720773	-0.9400858117636792	0.12163053530486043	-0.017882445061274163	8.438541046634784
99	8.526622159798281	-0.2716752056750684	-1.9728913452176042	0.08523778463340193	-0.9999999563991004	0.1201062752375498	-0.010163748694137957	8.52377883498463
100	8.52377883498464	-0.2783612139916225	-1.9725781844427088	0.0	0.0	0.11923993977751783	0.0	8.609016623334478
101	8.52377883498464	-0.2783612139916225	-1.9725781844427088	5.005234140847718e-05	-0.6566702588945365	0.5234217019111965	0.07732629117764053	8.756754565680826
102	8.523775943248626	-0.27836801975496045	-1.9725766603193415	-0.09696506050771407	-0.5885426758492273	0.5348457290590557	0.13388493328885875	8.904492508027174
103	8.529378005888454	-0.2651833881741748	-1.9756077391116262	-0.18391514442069268	-0.5290644533701558	0.5546256136143297	0.1725771457738833	9.052230450373521
104	8.540079276342892	-0.24020821318626887	-1.9816192580394822	-0.262078038130195	-0.4754913740004424	0.5801218060269691	0.19540072986049184	9.19996839271987
105	8.555542196093377	-0.20471104409285173	-1.9906814448888464	-0.33232615532845816	-0.42569887528990935	0.6089899077895328	0.20375301498743825	9.347706335066217
106	8.575556935129244	-0.15987865023960304	-2.0029104380023295	-0.3952180312229441	-0.37811715371275817	0.6390919589706415	0.1987086446811334	9.495444277412565
107	8.600009627258913	-0.10685690012853778	-2.018407077315525	-0.45108028147832485	-0.33170230358245545	0.6684487652622638	0.1813048674600639	9.643182219758913
108	8.628853002979794	-0.04678051369770085	-2.0372031796641825	-0.5000852972811405	-0.2859239262910969	0.695234373318191	0.1528311937475908	9.79092016210526
109	8.662076056291683	0.01920975475896384	-2.05921393272227	-0.5423271098189761	-0.24074453320574482	0.7178133394087962	0.1150857584587649	9.938658104451608
110	8.699671767026349	0.08996386485292217	-2.08420082900248	-0.5778942117859249	-0.19656420397363253	0.7348158725568629	0.07055374748521882	10.086396046797956
111	8.741604262860895	0.16433375892649996	-2.111754025884651	-0.6069342028199374	-0.15411197756163653	0.745239338035153	0.022685374128581685	10.234133989144304
112	8.787779036826764	0.24119791732164175	-2.1413039598932007	-0.6297023892758201	-0.11428593138053918	0.7485908285302667	-0.023393655934232774	10.381871931490652
113	8.838021263814797	0.3194952579436436	-2.172169218992294	-0.6465867576171169	-0.0779692855402727	0.7451346979385847	-0.06973570725344744	10.529609873837
114	8.892067148956446	0.39826164546677006	-2.2036431165453467	-0.6581057794290517	-0.045878520783660504	0.7348320880408931	-0.11188510490657466	10.677347816183348
115	8.949571458202591	0.4766605079074907	-2.2350217129923173	-0.6648837776875238	-0.018461775942818594	0.7183024128627904	-0.14768872230055347	10.825085758529696
116	9.010124394867226	0.554005140080028	-2.2656854741285946	-0.6676112824773752	0.004127380853600726	0.6964831849223455	-0.17627288695435642	10.972823700876043
117	9.073278184247084	0.6297664434829032	-2.2951443937813862	-0.6670015117227845	0.021995828831598053	0.6704409913122584	-0.19759332349693595	11.120561643222391
118	9.13857640015551	0.7035672336400921	-2.3230517568185114	-0.6637518932310018	0.035443512148350245	0.6412489602774448	-0.21216941253979638	11.26829958556874
119	9.205580467228687	0.7751666834563234	-2.349195153032038	-0.6585155416766767	0.04488843030986163	0.6099034878399818	-0.22084621646812522	11.416037527915087
120	9.273890096093966	0.8444393133558171	-2.3734745299480693	-0.6518838173475403	0.05080061590168996	0.5772761222440048	-0.2246041935998258	11.563775470261435
121	9.343156662613614	0.9113524555675304	-2.395875843393128	-0.6443786388842974	0.05365214636245845	0.5440935608392057	-0.22442746983778572	11.711513412607783
122	9.41309014099235	0.9759449580925788	-2.416445929969306	-0.6364521811782426	0.05388363436870706	0.5109371082393741	-0.22122505125717848	11.85925135495413
123	9.483460996411074	1.0383086735860783	-2.4352713597399287	-0.6284915239104669	0.05188453638546954	0.47825377437117317	-0.21579195354124425	12.006989297300478
124	9.554098620223675	1.0985733255875327	-2.452462032467715	-0.6208262092652834	0.04798330130381954	0.44637311518009104	-0.20879675390643018	12.154727239646826
125	9.6248877158707	1.156894732707436	-2.468139193114698	-0.6137372550636723	0.042444042348424416	0.41552591238935815	-0.2007847071335284	12.302465181993174
