	x	y	theta	v	a	sigma	omega	t
0	-3.88059701492537	-2.2636815920398	-0.912370953011526	0.00010000999911040085	1.0000000099886062	0.7499933009472223	8.313665688562352e-05	0.08061025349113794
1	-3.8805920821146755	-2.2636879685997036	-0.9123682707712245	0.08071026438420421	1.0000000099882245	0.7500000026142082	4.4054297239930894e-08	0.16122050698227589
2	-3.8766111822921934	-2.268833981312952	-0.9102036149318703	0.16132051870153585	1.0000000099878166	0.7500000061654363	1.405943029929529e-08	0.24183076047341384
3	-3.868632069247736	-2.2791023822257936	-0.9058769855005162	0.24193077300954985	1.0000000099873794	0.7500000072987705	6.433312593511117e-09	0.32244101396455177
4	-3.8565993576254067	-2.2944498833938147	-0.8993883824780816	0.3225410273138365	1.00000000998691	0.7500000078173615	-0.161699597117119	0.4030512674556897
5	-3.840424974064004	-2.3148065835945033	-0.8907378058655041	0.4031512816160994	1.0000000099864046	0.7369653623043356	-0.4999999855437696	0.4836615209468276
6	-3.819988899739329	-2.3400750446708587	-0.8802044644347764	0.48376153591707977	1.0000000099858597	0.6966602367240863	-0.4999999977108572	0.5642717744379656
7	-3.795148610363126	-2.370135965510878	-0.8685530414919762	0.5643717902171651	1.0000000099852697	0.656355110163044	-0.5000000016250107	0.6448820279291035
8	-3.7657624890833614	-2.4048659790438327	-0.856037583518286	0.6449820445165818	1.0000000099846293	0.6160499832864801	-0.5000000034777692	0.7254922814202415
9	-3.731684991925562	-2.444133134834708	-0.8428916885586022	0.7255922988154728	1.000000009983931	0.5757448562605642	-0.5000000044983552	0.8061025349113794
10	-3.692771080219477	-2.487800153641844	-0.8293323349283047	0.8062025531139326	1.0000000099831667	0.5354397291523778	-0.5000000050931576	0.8867127884025173
11	-3.6488801153118575	-2.5357276856180175	-0.8155630167054688	0.8868128074120263	1.0000000099823263	0.495134601996244	-0.5000000054297865	0.9673230418936553
12	-3.5998792838099516	-2.587777623627562	-0.8017763472772438	0.9674230617097991	1.0000000099813977	0.45482947481297403	-0.5000000055853626	1.0479332953847933
13	-3.5456466146335543	-2.6438165019912	-0.7881562521780606	1.0480333160072828	1.000000009980366	0.41452434761716295	-0.5000000055942004	1.1285435488759312
14	-3.486073645611157	-2.7037189957826224	-0.7748798437073272	1.1286435703044992	1.000000009979213	0.3742192204206394	-0.5000000054652667	1.2091538023670692
15	-3.4210677966755156	-2.7673715248588744	-0.7621190489435787	1.209253824601462	1.000000009977916	0.3339140932345094	-0.5000000051875173	1.289764055858207
16	-3.350554508461142	-2.834675958878199	-0.7500420474940068	1.2898640788981783	1.0000000099764461	0.29360896607076903	-0.5000000047281331	1.370374309349345
17	-3.2744792089565706	-2.905553413723302	-0.7388145640731144	1.3704743331946496	1.000000009974766	0.25330383894406017	-0.5000000040235532	1.450984562840483
18	-3.192809176588551	-2.9799481252715507	-0.728601052715505	1.4510845874908713	1.000000009972827	0.21299871187414815	-0.5000000029587619	1.5315948163316209
19	-3.1055353755656134	-3.0578313827047405	-0.7195658033460322	1.531694841786833	1.0000000099705644	0.17269358489006972	-0.5000000013220639	1.6122050698227588
20	-3.012674348406843	-3.1392054999362844	-0.7118739970313482	1.6123050960825172	1.0000000099678903	0.13238845803792648	-0.49999999870115824	1.6928153233138967
21	-2.9142702613092135	-3.2241077996472978	-0.7056927331539378	1.6929153503778978	1.0000000099646809	0.09208333139705566	-0.4999999942194145	1.7734255768050347
22	-2.8103972103924297	-3.3126145792026445	-0.7011920497300712	1.7735256046729377	1.0000000099607576	0.051778205117459855	-0.4999999857667585	1.8540358302961726
23	-2.7011619109671505	-3.4048450206008685	-0.6985459569676518	1.8541358589675843	1.0000000099558533	0.011473079519235246	-0.4999999672627578	1.9346460837873105
24	-2.5867069078799716	-3.500964996688646	-0.6979335038233635	1.934746113261763	1.0000000099495472	-0.02883204458737681	-0.49999991564932583	2.0152563372784487
25	-2.4672144627661656	-3.601190712031657	-0.6995398977138668	2.0153563675553645	1.0000000099411388	-0.06913716453341677	-0.4999996789420559	2.0958665907695866
26	-2.3429112937101086	-3.705792097706696	-0.7035576986226378	2.0959666218482216	1.0000000099293669	-0.10944226539842355	0.3891705926606579	2.1764768442607245
27	-2.21407436428741	-3.815095853147182	-0.7101881102473708	2.176576876140066	1.000000009911709	-0.0780711252727516	0.4999977804551518	2.2570870977518624
28	-2.0810379419205645	-3.92948799282886	-0.7150901893919125	2.2571871304304256	1.0000000098822788	-0.03776617744525547	0.4999882267578208	2.3376973512430004
29	-1.9436576536084766	-4.048791563554024	-0.7175455167039715	2.3377973847183524	1.0000000098234183	0.0025380002562772537	0.025216713223414688	2.4183076047341383
30	-1.8016749630250024	-4.172704774444674	-0.7173746994572051	2.418407639001475	1.0000000096468367	0.004570725901429806	-0.0477492305860549	2.4989178582252762
31	-1.654774632822759	-4.300865580643749	-0.7170564629758258	2.4990178932703055	0.012183706894481108	0.0007216483198811835	-0.024665186148357325	2.579528111716414
32	-1.5029356902293014	-4.433249923064031	-0.7170045438583735	2.500000024971531	1.5387245286748715e-15	-0.0012666185879439992	0.01890752472549945	2.660138365207552
33	-1.351030198083098	-4.565678406846303	-0.7170957068057596	2.500000024971531	7.22786686355967e-16	0.00025752177306846913	0.00903879556444033	2.74074861869869
34	-1.1991367791389964	-4.698120738230658	-0.7170771720771233	2.500000024971531	1.971494756604699e-15	0.0009861413747725772	-0.02429866288167862	2.821358872189828
35	-1.047240905438313	-4.8305602542889625	-0.7170061960657297	2.500000024971531	7.354581547568321e-16	-0.0009725799996152404	0.012117336958767504	2.901969125680966
36	-0.8953356320916318	-4.962988989050425	-0.7170761960173478	2.500000024971531	-1.369935967142093e-15	4.201604268542553e-06	0.01109241841596193	2.982579379172104
37	-0.7434396291221366	-5.095428356849213	-0.7170758936134294	2.500000024971531	1.4750047395232754e-15	0.0008983642646090005	-0.026776103538991465	3.0631896326632417
38	-0.5915435861024645	-5.22786767871405	-0.7170112352283379	2.500000024971531	-2.200957907468183e-16	-0.001260064229174057	0.02504923783538076	3.1437998861543797
39	-0.43963898008764046	-5.360297178949204	-0.7171019264352146	2.500000024971531	-2.5465879726680106e-15	0.000759161182495789	-0.004781542137083189	3.2244101396455176
40	-0.28774638488870197	-5.49274045505178	-0.717047286981885	2.500000024971531	-2.1626086926081147e-15	0.00037371985874695593	-0.020352440179326796	3.3050203931366555
41	-0.13584655328829912	-5.625175431628291	-0.7170203890763032	2.500000024971531	2.1172924362599727e-15	-0.0012668955032717978	0.029380777069738646	3.3856306466277934
42	0.016056840480649467	-5.757606322369566	-0.7171115719542702	2.500000024971531	-2.4686780458549135e-15	0.0011014963840864469	-0.013866564569463816	3.4662409001189314
43	0.16794815818837877	-5.890051063548902	-0.7170322934368256	2.500000024971531	1.7421287995958671e-15	-1.6290900909263255e-05	-0.013018705043178726	3.5468511536100693
44	0.3198499754414963	-6.0224837625935566	-0.7170334659490267	2.500000024971531	-2.317570435018098e-15	-0.0010657320145662564	0.030326332991450138	3.6274614071012072
45	0.4717516374155539	-6.154916639744855	-0.717110170378697	2.500000024971531	-3.7710633744965746e-16	0.0013788813753311984	-0.030409449079551593	3.708071660592345
46	0.6236431407544482	-6.287361168036901	-0.717010927478023	2.500000024971531	-5.198673324315888e-16	-0.0010724320234973064	0.02092692633626813	3.788681914083483
47	0.7755477875244854	-6.419790621523358	-0.7170881141309441	2.500000024971531	7.13144745193565e-17	0.0006144928132596379	-0.009734996432696664	3.869292167574621
48	0.9274422120557628	-6.552231799626559	-0.7170438869629306	2.500000024971531	-7.726240812249624e-16	-0.00017024771691536377	0.0005505294783995016	3.949902421065759
49	1.0793424939367182	-6.6846662597399975	-0.7170561402771151	2.500000024971531	-1.0913863258898136e-15	-0.000125869396107236	0.004625101524894197	4.030512674556897
50	1.2312411530452216	-6.817102581125372	-0.7170651995307596	2.500000024971531	-9.910820133204368e-16	0.0002469612102367338	-0.005929824110742879	4.111122928048036
51	1.383138612373265	-6.949540278593794	-0.7170474248822211	2.500000024971531	-2.5677366281706103e-15	-0.0002310434144881112	0.004553820207794218	4.191733181539174
52	1.5350384257108385	-7.081975276117342	-0.7170640538721557	2.500000024971531	9.215421212891135e-16	0.0001360411868152471	-0.002035117498987222	4.272343435030312
53	1.6869360367671697	-7.214412799563045	-0.7170542625197167	2.500000024971531	2.5991641588759736e-15	-2.8010150662363493e-05	-0.0002733188152618494	4.352953688521451
54	1.8388349445586878	-7.3468488357193555	-0.7170562785066527	2.500000024971531	2.3170856869137505e-15	-5.004244964451866e-05	0.0014630419699313865	4.433563942012589
55	1.9907335853605783	-7.479285178101611	-0.7170598802339695	2.500000024971531	-2.4598394532202153e-15	6.789373441982423e-05	-0.0011258355007854016	4.514174195503728
56	2.1426317491618914	-7.611722067580491	-0.7170549936882507	2.500000024971531	-1.6559173758100448e-15	-2.2860150687809207e-05	-0.0006886216454976845	4.594784448994866
57	2.294530560120306	-7.744158214800469	-0.7170566390119654	2.500000024971531	-1.0149799895835435e-15	-7.837011609086209e-05	0.0035195485325850632	4.675394702486004
58	2.446429153178182	-7.8765946119429815	-0.7170622795789299	2.500000024971531	-2.1406365038189646e-15	0.00020534158329518244	-0.0063485368233842515	4.756004955977143
59	2.5983269992172744	-8.009031865877574	-0.7170475004383231	2.500000024971531	-1.5236450266152532e-15	-0.00030641557933564574	0.007718016666386669	4.836615209468281
60	2.750226802548575	-8.141466874878079	-0.7170695542227371	2.500000024971531	-2.7456299430777147e-16	0.00031573570059061095	-0.0060369572908959375	4.917225462959419
61	2.9021236851497996	-8.273905233811892	-0.7170468296370579	2.500000024971531	-1.2918076913389573e-16	-0.00017090495694368395	0.00013461161058814846	4.997835716450558
62	3.0540235773186377	-8.406340140917788	-0.7170591302550703	2.500000024971531	1.5198420829632967e-15	-0.00016005388089132297	0.00878182131721031	5.078445969941696
63	3.205921840444781	-8.538776916476213	-0.7170706498837756	2.500000024971531	5.951204992912241e-16	0.000547850961602879	-0.01649531503696381	5.1590562234328345
64	3.357818577938364	-8.671215441837443	-0.7170312191607847	2.500000024971531	6.755062172071829e-16	-0.000781840564942953	0.01747582714286833	5.239666476923973
65	3.5097205374606695	-8.803647977697539	-0.7170874909282856	2.500000024971531	4.28527791578142e-16	0.0006268902910109721	-0.008251446365281613	5.320276730415111
66	3.6616150445296114	-8.936089061139706	-0.717042371470791	2.500000024971531	1.301005683236257e-15	-3.8260892162907465e-05	-0.010512726503053703	5.40088698390625
67	3.813515527113776	-9.068523291049308	-0.7170451252388699	2.500000024971531	-2.3570273451753496e-15	-0.0008856944404570705	0.03461066904893745	5.481497237397388
68	3.9654156450042093	-9.200957939257108	-0.7171088717323905	2.500000024971531	-0.013424367908641351	0.0019042803650756589	0.11487316461899447	5.562107490888526
69	4.117307320341573	-9.333402270295704	-0.7169718139555773	2.4989178832714574	-1.000000009646835	0.01116423528434202	-0.2750302917025642	5.642717744379665
70	4.269151391595336	-9.465768461753925	-0.7161685999637435	2.4183076290026273	-1.0000000098234183	-0.011006026247543292	-0.4999977061601441	5.723327997870803
71	4.416200108343695	-9.593746705778631	-0.7169348877119416	2.3376973747195047	-1.0000000098822786	-0.051310968086100014	-0.4999989420421649	5.8039382513619415
72	4.558252360254854	-9.71756789758006	-0.7203911932451741	2.257087120431578	-1.0000000099117092	-0.09161600954941973	-0.15731177303156424	5.88454850485308
73	4.694992233757105	-9.837592723864036	-0.7263611257025342	2.1764768661412184	-1.0000000099293678	-0.10429695145063449	0.4999997882953339	5.965158758344218
74	4.826155245386859	-9.954116055324041	-0.7329201111172576	2.095866611849374	-1.0000000099411395	-0.06399184177063222	0.4999999412168781	6.045769011835357
75	4.951721687786502	-10.06714972176256	-0.7367865742839006	2.0152563575565163	-1.0000000099495472	-0.02368671976358531	0.4999999774124038	6.126379265326495
76	5.072037518942591	-10.176301950949508	-0.7381610868349953	1.9346461032629152	-1.0000000099558524	0.01661840516119243	0.499999990997008	6.206989518817633
77	5.1873965779244955	-10.281246752529283	-0.7372354020747199	1.8540358489687365	-1.0000000099607558	0.05692353118102901	0.499999997402426	6.287599772308772
78	5.298042060131974	-10.381716474267531	-0.7341937351818416	1.77342559467409	-1.000000009964678	0.09722865771720851	0.5000000008732994	6.36821002579991
79	5.404168687840916	-10.477495588944088	-0.7292139447545729	1.6928153403790502	-1.0000000099678865	0.13753378453317663	0.50000000293557	6.4488202792910485
80	5.505925399902368	-10.568415509821136	-0.7224686382160868	1.6122050860836703	-1.0000000099705602	0.17783891151538553	0.5000000042394128	6.529430532782187
81	5.603418423935176	-10.654350250283139	-0.7141262219781074	1.5315948317879866	-1.0000000099728223	0.2181440386026982	0.5000000050965733	6.610040786273325
82	5.696714624161413	-10.735212760848347	-0.7043519161150699	1.4509845774920256	-1.0000000099747612	0.2584491657591074	0.5000000056695516	6.690651039764464
83	5.785845040340069	-10.810951793640912	-0.6933087528449388	1.3703743231958045	-1.0000000099764417	0.2987542929617051	0.5000000060477797	6.771261293255602
84	5.870808549790659	-10.881549160235487	-0.6811585783711108	1.2897640688993341	-1.000000009977912	0.33905942019479224	0.5000000062812913	6.85187154674674
85	5.951575596663256	-10.94701726335593	-0.6680630786644655	1.2091538146026184	-1.0000000099792097	0.3793645474467032	0.5000000063963815	6.932481800237879
86	6.028091941542139	-11.00739679613228	-0.6541848516554453	1.1285435603056564	-1.0000000099803634	0.4196696747078918	0.5000000064024933	7.013092053729017
87	6.1002823910985855	-11.062754514444226	-0.6396885512251544	1.0479333060084408	-1.000000009981396	0.4599748019695731	0.5000000062936546	7.0937023072201555
88	6.168054472610429	-11.113180998260946	-0.6247421325753881	0.9673230517109576	-1.0000000099823254	0.5002799292224807	0.500000006044564	7.174312560711294
89	6.2313020224043125	-11.15878832676287	-0.6095182343740633	0.886712797413185	-1.0000000099831667	0.5405850564553086	0.5000000055975677	7.254922814202432
90	6.289908661239546	-11.199707599296039	-0.5941957410221947	0.8061025431150912	-1.0000000099839321	0.5808901836521035	0.5000000048269685	7.335533067693571
91	6.343751133894431	-11.236086239698878	-0.5789615791981196	0.7254922888166309	-1.0000000099846313	0.6211953107867797	0.5000000034294463	7.416143321184709
92	6.3927024953014895	-11.268085025007696	-0.5640128175498738	0.6448820345177385	-1.0000000099852726	0.6615004378088002	0.5000000004832872	7.496753574675847
93	6.436635132136837	-11.295874780637805	-0.5495591585455847	0.564271780218319	-1.0000000099858632	0.7018055645933292	0.49999999135889517	7.577363828166986
94	6.475423617569983	-11.319632682360902	-0.5358259392844299	0.4836615259182287	-1.000000009986409	0.7421106906423376	0.09786990374826326	7.657974081658124
95	6.5089474089387425	-11.339538100082997	-0.5230577968411313	0.4030512716172397	-1.0000000099869142	0.7500000083926385	-3.137653239829111e-09	7.7385843351492625
96	6.537093414851312	-11.355767908655336	-0.512247928909048	0.3224410173149631	-1.000000009987383	0.7500000081397115	-6.003726363734501e-09	7.819194588640401
97	6.559749254951271	-11.36850759797423	-0.5036000345671858	0.24183076301065592	-1.0000000099878192	0.7500000076557495	-1.2946254455349324e-08	7.899804842131539
98	6.576823127239524	-11.377915065532935	-0.49711411381641163	0.1612205087026087	-1.000000009988226	0.7500000066121486	-4.058777019372258e-08	7.980415095622678
99	6.5882461464591255	-11.384112752654538	-0.49279016665748293	0.0806102543852153	-1.0000000099886064	0.7500000033403582	-0.14779381584308038	8.061025349113816
100	6.593971001873098	-11.387186871059345	-0.49062819309126243	0.0	0.0	0.738086306380825	0.0	8.141635602604953
101	6.593971001873098	-11.387186871059345	-0.4906281930912051	-9.999109211052002e-09	-1.0000000099848638	-0.7491292128377004	-0.014441864426352764	8.201931515547077
102	6.593971001340473	-11.387186870775075	-0.4906281928909021	-0.060295923776558735	-1.0000000099844835	-0.7499999982378763	-9.513758577252224e-08	8.2622274284892
103	6.590764269440718	-11.385473849560917	-0.48941858217616996	-0.12059183735234708	-1.0000000099840833	-0.750000003974284	-3.113522536630076e-08	8.322523341431324
104	6.584346666700242	-11.382055567721	-0.4869993609235798	-0.18088775091324033	-1.0000000099836621	-0.7500000058516108	-1.4889131338080463e-08	8.382819254373448
105	6.5747078866743935	-11.376951448488702	-0.48337052913368417	-0.24118366446864783	-1.0000000099832183	-0.7500000067493646	-8.282928866583067e-09	8.443115167315572
106	6.561831568841505	-11.370192637662969	-0.47853208680699066	-0.30147957802119085	-1.0000000099827497	-0.7500000072487913	-4.846957965906731e-09	8.503411080257695
107	6.54569548260237	-11.361822099441586	-0.47248403394403293	-0.3617754915719655	-1.0000000099822544	-0.7500000075410431	-2.7145854888224027e-09	8.563706993199819
108	6.526271783190519	-11.351894746912146	-0.46522637054543914	-0.4220714051215329	-1.0000000099817299	-0.7500000077047215	-1.1554167005577998e-09	8.624002906141943
109	6.503527340576132	-11.34047760504424	-0.45675909661199915	-0.48236731867021826	-1.0000000099811734	-0.7500000077743884	0.07117992298880395	8.684298819084066
110	6.477424142708832	-11.327650003402143	-0.4470822121447611	-0.5426632322182264	-1.0000000099805824	-0.7457081493346283	0.499999972541632	8.74459473202619
111	6.447919774676832	-11.313503795158669	-0.4362890259068713	-0.6029591457656941	-1.0000000099799535	-0.715560194519193	0.49999999039076054	8.804890644968314
112	6.41496940893921	-11.298140523711117	-0.425002532478746	-0.6632550593127171	-1.000000009979283	-0.6854122386275272	0.4999999961603635	8.865186557910437
113	6.378535582060081	-11.281651076319978	-0.4133242473325357	-0.7235509728593644	-1.0000000099785664	-0.6552642823879775	0.4999999988885562	8.925482470852561
114	6.338582229529949	-11.264127969410357	-0.4013494561358288	-0.7838468864056871	-1.000000009977799	-0.6251163259839285	0.5000000003716146	8.985778383794685
115	6.295075217839142	-11.245664254749736	-0.3891681314749492	-0.8441427999517235	-1.0000000099769748	-0.5949683694904568	0.500000001197985	9.046074296736808
116	6.247982781654055	-11.226352455662495	-0.3768657170865798	-0.9044387134975027	-1.0000000099760873	-0.5648204129471581	0.5000000016018267	9.106370209678932
117	6.19727587281746	-11.206283525349713	-0.36452380411482405	-0.964734627043047	-1.0000000099751285	-0.5346724563795091	0.5000000016811956	9.166666122621056
118	6.14292842786496	-11.185545821379504	-0.3522207189812244	-1.025030540588373	-1.0000000099740893	-0.5045244998070745	0.5000000014592927	9.22696203556318
119	6.084917560825605	-11.16422409188465	-0.3400320386524387	-1.0853264541334937	-1.0000000099729596	-0.4743765432480198	0.5000000008972967	9.287257948505303
120	6.023223688251429	-11.142398470062387	-0.3280310461327839	-1.1456223676784176	-1.0000000099717266	-0.4442285867228514	0.4999999998753639	9.347553861447427
121	5.957830593692837	-11.120143474301333	-0.3162891366939003	-1.205918281223151	-1.0000000099703754	-0.4140806302593017	0.4999999981172392	9.40784977438955
122	5.888725439199995	-11.097527011729358	-0.3048761835318048	-1.2662141947676968	-1.0000000099688882	-0.38393267390176006	0.49999999494756786	9.468145687331674
123	5.815898731881675	-11.074609383236758	-0.2938608701012161	-1.3265101083120558	-1.000000009967243	-0.3537847177353372	0.4999999883095882	9.528441600273798
